 -45.00
 -44.00
 -43.00
 -42.00
 -36.73
 -36.39
 -36.04
 -35.69
 -35.34
 -34.99
 -34.08
 -33.16
 -32.24
 -31.32
 -30.41
 -29.47
 -28.53
 -27.58
 -26.64
 -25.70
 -24.63
 -23.55
 -22.48
 -21.40
 -20.33
 -19.41
 -18.49
 -17.57
 -16.65
 -15.73
 -14.81
 -13.86
 -12.91
 -11.95
 -11.00
 -10.05
  -9.04
  -8.03
  -7.02
  -6.02
  -5.01
  -4.00
  -3.12
  -2.24
  -1.36
  -0.48
   0.41
   1.29
   3.08
   4.87
   6.67
   8.46
  10.26
  12.05
  12.50
  12.95
  13.40
  13.85
  14.30
  14.90
  15.51
  16.11
  16.71
  17.31
  17.91
  19.08
  20.24
  21.41
  22.57
  23.74
  24.57
  25.41
  26.25
  27.08
  27.92
  29.21
  30.50
  31.79
  33.08
  34.37
  35.35
  36.33
  37.30
  38.28
  39.26
  40.20
  41.14
  42.08
  43.02
  43.94
  44.85
  45.77
  46.69
  47.45
  48.20
  48.95
  49.70
  49.44
  49.18
  48.92
  55.00
  56.00
